Number:0, mass:1, radius:0.001
time,x,y,z
0, 0.625313, 0.77385, 0.0956169
0.01, 0.625492, 0.774395, 0.0960499
0.02, 0.625672, 0.77494, 0.096483
0.03, 0.625852, 0.775485, 0.0969161
0.04, 0.626032, 0.77603, 0.0973492
0.05, 0.626212, 0.776574, 0.0977824
0.06, 0.626392, 0.777119, 0.0982155
0.07, 0.626572, 0.777664, 0.0986487
0.08, 0.626752, 0.778208, 0.099082
0.09, 0.626932, 0.778753, 0.0995152
0.1, 0.627112, 0.779297, 0.0999485
0.11, 0.627292, 0.779842, 0.100382
0.12, 0.627472, 0.780386, 0.100815
0.13, 0.627652, 0.780931, 0.101248
0.14, 0.627832, 0.781475, 0.101682
0.15, 0.628012, 0.782019, 0.102115
0.16, 0.628192, 0.782563, 0.102549
0.17, 0.628372, 0.783108, 0.102982
0.18, 0.628552, 0.783652, 0.103416
0.19, 0.628731, 0.784197, 0.103849
0.2, 0.628908, 0.784744, 0.104282
0.21, 0.629083, 0.785294, 0.104714
0.22, 0.629256, 0.785845, 0.105146
0.23, 0.629425, 0.7864, 0.105577
0.24, 0.629591, 0.786959, 0.106008
0.25, 0.629752, 0.787522, 0.106437
0.26, 0.62991, 0.788089, 0.106865
0.27, 0.630063, 0.788661, 0.107293
0.28, 0.630213, 0.789236, 0.107719
0.29, 0.630358, 0.789816, 0.108145
0.3, 0.630499, 0.7904, 0.10857
0.31, 0.630635, 0.790988, 0.108993
0.32, 0.630767, 0.79158, 0.109416
0.33, 0.630894, 0.792177, 0.109837
0.34, 0.631017, 0.792778, 0.110258
0.35, 0.631135, 0.793383, 0.110677
0.36, 0.631249, 0.793993, 0.111095
0.37, 0.631357, 0.794608, 0.111513
0.38, 0.631461, 0.795227, 0.111929
0.39, 0.63156, 0.795851, 0.112344
0.4, 0.631653, 0.796479, 0.112757
0.41, 0.631741, 0.797112, 0.11317
0.42, 0.631825, 0.79775, 0.113581
0.43, 0.631902, 0.798392, 0.113991
0.44, 0.631974, 0.79904, 0.1144
0.45, 0.632041, 0.799692, 0.114808
0.46, 0.632102, 0.800349, 0.115214
0.47, 0.632156, 0.801011, 0.115619
0.48, 0.632205, 0.801679, 0.116022
0.49, 0.632248, 0.802351, 0.116425
0.5, 0.632285, 0.803029, 0.116825
0.51, 0.632315, 0.803712, 0.117224
0.52, 0.632339, 0.8044, 0.117622
0.53, 0.632356, 0.805094, 0.118018
0.54, 0.632367, 0.805794, 0.118413
0.55, 0.63237, 0.806499, 0.118806
0.56, 0.632366, 0.807209, 0.119197
0.57, 0.632355, 0.807926, 0.119587
0.58, 0.632337, 0.808648, 0.119975
0.59, 0.632311, 0.809376, 0.120361
0.6, 0.632277, 0.81011, 0.120745
0.61, 0.632235, 0.810851, 0.121128
0.62, 0.632185, 0.811597, 0.121508
0.63, 0.632127, 0.81235, 0.121887
0.64, 0.632059, 0.813109, 0.122264
0.65, 0.631983, 0.813875, 0.122638
0.66, 0.631898, 0.814648, 0.12301
0.67, 0.631803, 0.815427, 0.123381
0.68, 0.631698, 0.816214, 0.123749
0.69, 0.631584, 0.817007, 0.124114
0.7, 0.631459, 0.817808, 0.124477
0.71, 0.631324, 0.818616, 0.124838
0.72, 0.631177, 0.819432, 0.125196
0.73, 0.631019, 0.820255, 0.125552
0.74, 0.63085, 0.821086, 0.125905
0.75, 0.630668, 0.821926, 0.126255
0.76, 0.630474, 0.822773, 0.126602
0.77, 0.630267, 0.823629, 0.126946
0.78, 0.630047, 0.824494, 0.127287
0.79, 0.629812, 0.825367, 0.127625
0.8, 0.629564, 0.82625, 0.127959
0.81, 0.6293, 0.827142, 0.12829
0.82, 0.62902, 0.828044, 0.128617
0.83, 0.628724, 0.828956, 0.12894
0.84, 0.628412, 0.829878, 0.12926
0.85, 0.628081, 0.83081, 0.129575
0.86, 0.627732, 0.831754, 0.129886
0.87, 0.627364, 0.832708, 0.130193
0.88, 0.626975, 0.833675, 0.130494
0.89, 0.626565, 0.834653, 0.130791
0.9, 0.626132, 0.835644, 0.131082
0.91, 0.625676, 0.836648, 0.131368
0.92, 0.625195, 0.837665, 0.131649
0.93, 0.624688, 0.838697, 0.131923
0.94, 0.624153, 0.839743, 0.13219
0.95, 0.623588, 0.840805, 0.132451
0.96, 0.622992, 0.841882, 0.132704
0.97, 0.622363, 0.842977, 0.132949
0.98, 0.621697, 0.844089, 0.133186
0.99, 0.620994, 0.84522, 0.133414
1, 0.620249, 0.846371, 0.133633
1.01, 0.619459, 0.847543, 0.133841
1.02, 0.618621, 0.848738, 0.134037
1.03, 0.617731, 0.849956, 0.134222
1.04, 0.616783, 0.851199, 0.134393
1.05, 0.615772, 0.852471, 0.134549
1.06, 0.614692, 0.853772, 0.134689
1.07, 0.613533, 0.855105, 0.13481
1.08, 0.612288, 0.856474, 0.134912
1.09, 0.610945, 0.857882, 0.13499
1.1, 0.609489, 0.859334, 0.135042
1.11, 0.607904, 0.860835, 0.135063
1.12, 0.606166, 0.862391, 0.135049
1.13, 0.604247, 0.864012, 0.134993
1.14, 0.602108, 0.865708, 0.134884
1.15, 0.599693, 0.867497, 0.134712
1.16, 0.59692, 0.869398, 0.134455
1.17, 0.593659, 0.871449, 0.134084
1.18, 0.58968, 0.873706, 0.133544
1.19, 0.584503, 0.876288, 0.132724
1.2, 0.576709, 0.879526, 0.13129
1.21, 0.922076, 0.00932105, 0.9782
1.22, 0.0109744, 0.359274, 0.358216
1.23, 0.0998808, 0.709257, 0.738201
1.24, 0.188768, 0.0592496, 0.118234
1.25, 0.279822, 0.409978, 0.498881
1.26, 0.377366, 0.763138, 0.881688
1.27, 0.473447, 0.11504, 0.264082
1.28, 0.567112, 0.464707, 0.645805
1.29, 0.660804, 0.813191, 0.0256449
1.3, 0.754426, 0.160908, 0.40508
1.31, 0.848047, 0.508627, 0.784516
1.32, 0.943906, 0.852835, 0.192216
1.33, 0.0662745, 0.156651, 0.924481
1.34, 0.188719, 0.459825, 0.656846
1.35, 568531, -103247, -289431
1.36, 1.1702e+06, -204617, -590998
1.37, 1.76188e+06, -295986, -882564
1.38, 2.34355e+06, -377355, -1.16413e+06
1.39, 2.91522e+06, -448724, -1.4357e+06
1.4, 3.4769e+06, -510093, -1.69726e+06
1.41, 4.02857e+06, -561462, -1.94883e+06
1.42, 4.57024e+06, -602832, -2.1904e+06
1.43, 5.10192e+06, -634201, -2.42196e+06
1.44, 5.62359e+06, -655570, -2.64353e+06
1.45, 6.13526e+06, -666939, -2.8551e+06
1.46, 6.63694e+06, -668308, -3.05666e+06
1.47, 7.12861e+06, -659678, -3.24823e+06
1.48, 7.61028e+06, -641047, -3.4298e+06
1.49, 8.08196e+06, -612416, -3.60136e+06
1.5, 8.54363e+06, -573785, -3.76293e+06
1.51, 8.9953e+06, -525154, -3.9145e+06
1.52, 9.43698e+06, -466524, -4.05606e+06
1.53, 9.86865e+06, -397893, -4.18763e+06
1.54, 1.02903e+07, -319262, -4.3092e+06
1.55, 1.0702e+07, -230631, -4.42076e+06
1.56, 1.11037e+07, -132000, -4.52233e+06
1.57, 1.14953e+07, -23369.7, -4.6139e+06
1.58, 1.1877e+07, 88781.1, -4.69546e+06
1.59, 1.22487e+07, 191312, -4.76703e+06
1.6, 1.26104e+07, 283843, -4.8286e+06
1.61, 1.2962e+07, 366374, -4.88016e+06
1.62, 1.33037e+07, 438904, -4.92173e+06
1.63, 1.36354e+07, 501435, -4.9533e+06
1.64, 1.39571e+07, 553966, -4.97486e+06
1.65, 1.42687e+07, 596497, -4.98643e+06
1.66, 1.45704e+07, 629028, -4.988e+06
1.67, 1.48621e+07, 651558, -4.97956e+06
1.68, 1.51437e+07, 664089, -4.96113e+06
1.69, 1.54154e+07, 666620, -4.9327e+06
1.7, 1.56771e+07, 659151, -4.89426e+06
1.71, 1.59288e+07, 641682, -4.84583e+06
1.72, 1.61704e+07, 614212, -4.7874e+06
1.73, 1.64021e+07, 576743, -4.71896e+06
1.74, 1.66238e+07, 529274, -4.64053e+06
1.75, 1.68355e+07, 471805, -4.5521e+06
1.76, 1.70371e+07, 404336, -4.45366e+06
1.77, 1.72288e+07, 326866, -4.34523e+06
1.78, 1.74105e+07, 239397, -4.2268e+06
1.79, 1.75822e+07, 141928, -4.09837e+06
1.8, 1.77438e+07, 34458.8, -3.95993e+06
1.81, 1.78955e+07, -78040.4, -3.8115e+06
1.82, 1.80372e+07, -181410, -3.65307e+06
1.83, 1.81688e+07, -274779, -3.48463e+06
1.84, 1.82905e+07, -358148, -3.3062e+06
1.85, 1.84022e+07, -431517, -3.11777e+06
1.86, 1.85039e+07, -494886, -2.91933e+06
1.87, 1.85955e+07, -548256, -2.7109e+06
1.88, 1.86772e+07, -591625, -2.49247e+06
1.89, 1.87489e+07, -624994, -2.26403e+06
1.9, 1.88106e+07, -648363, -2.0256e+06
1.91, 1.88622e+07, -661732, -1.77717e+06
1.92, 1.89039e+07, -665102, -1.51873e+06
1.93, 1.89356e+07, -658471, -1.2503e+06
1.94, 1.89573e+07, -641840, -971865
1.95, 1.89689e+07, -615209, -683432
1.96, 1.89706e+07, -578578, -384999
1.97, 1.89623e+07, -531948, -76565.3
1.98, 1.89439e+07, -475317, 236016
1.99, 1.89156e+07, -408686, 539149
2, 1.88773e+07, -332055, 832283
2.01, 1.8829e+07, -245424, 1.11542e+06
2.02, 1.87706e+07, -148794, 1.38855e+06
2.03, 1.87023e+07, -42162.8, 1.65168e+06
2.04, 1.8624e+07, 70436, 1.90482e+06
2.05, 1.85357e+07, 174367, 2.14795e+06
2.06, 1.84373e+07, 268298, 2.38108e+06
2.07, 1.8329e+07, 352228, 2.60422e+06
2.08, 1.82107e+07, 426159, 2.81735e+06
2.09, 1.80824e+07, 490090, 3.02048e+06
2.1, 1.7944e+07, 544021, 3.21362e+06
2.11, 1.77957e+07, 587952, 3.39675e+06
2.12, 1.76374e+07, 621882, 3.56988e+06
2.13, 1.7469e+07, 645813, 3.73302e+06
2.14, 1.72907e+07, 659744, 3.88615e+06
2.15, 1.71024e+07, 663675, 4.02928e+06
2.16, 1.69041e+07, 657606, 4.16242e+06
2.17, 1.66957e+07, 641536, 4.28555e+06
2.18, 1.64774e+07, 615467, 4.39868e+06
2.19, 1.62491e+07, 579398, 4.50182e+06
2.2, 1.60108e+07, 533329, 4.59495e+06
2.21, 1.57624e+07, 477260, 4.67808e+06
2.22, 1.55041e+07, 411190, 4.75122e+06
2.23, 1.52358e+07, 335121, 4.81435e+06
2.24, 1.49574e+07, 249052, 4.86748e+06
2.25, 1.46691e+07, 152983, 4.91062e+06
2.26, 1.43708e+07, 46913.7, 4.94375e+06
2.27, 1.40625e+07, -65615.5, 4.96688e+06
2.28, 1.37441e+07, -169785, 4.98002e+06
2.29, 1.34158e+07, -263954, 4.98315e+06
2.3, 1.30775e+07, -348123, 4.97628e+06
2.31, 1.27292e+07, -422292, 4.95942e+06
2.32, 1.23708e+07, -486461, 4.93255e+06
2.33, 1.20025e+07, -540631, 4.89568e+06
2.34, 1.16242e+07, -584800, 4.84882e+06
2.35, 1.12359e+07, -618969, 4.79195e+06
2.36, 1.08375e+07, -643138, 4.72508e+06
2.37, 1.04292e+07, -657307, 4.64822e+06
2.38, 1.00109e+07, -661477, 4.56135e+06
2.39, 9.58255e+06, -655646, 4.46448e+06
2.4, 9.14422e+06, -639815, 4.35762e+06
2.41, 8.69589e+06, -613984, 4.24075e+06
2.42, 8.23757e+06, -578153, 4.11388e+06
2.43, 7.76924e+06, -532323, 3.97702e+06
2.44, 7.29091e+06, -476492, 3.83015e+06
2.45, 6.80259e+06, -410661, 3.67328e+06
2.46, 6.30426e+06, -334830, 3.50642e+06
2.47, 5.79593e+06, -248999, 3.32955e+06
2.48, 5.27761e+06, -153169, 3.14268e+06
2.49, 4.74928e+06, -47337.9, 2.94582e+06
2.5, 4.21095e+06, 64953, 2.73895e+06
2.51, 3.66263e+06, 168884, 2.52208e+06
2.52, 3.1043e+06, 262815, 2.29522e+06
2.53, 2.53597e+06, 346745, 2.05835e+06
2.54, 1.95765e+06, 420676, 1.81148e+06
2.55, 1.36932e+06, 484607, 1.55462e+06
2.56, 770993, 538538, 1.28775e+06
2.57, 162666, 582469, 1.01088e+06
2.58, -450110, 616399, 724015
2.59, -1.05354e+06, 640330, 427148
2.6, -1.64696e+06, 654261, 120282
2.61, -2.23039e+06, 658192, -192679
2.62, -2.80382e+06, 652123, -497046
2.63, -3.36724e+06, 636053, -791412
2.64, -3.92067e+06, 609984, -1.07578e+06
2.65, -4.4641e+06, 573915, -1.35015e+06
2.66, -4.99752e+06, 527846, -1.61451e+06
2.67, -5.52095e+06, 471777, -1.86888e+06
2.68, -6.03438e+06, 405707, -2.11325e+06
2.69, -6.5378e+06, 329638, -2.34761e+06
2.7, -7.03123e+06, 243569, -2.57198e+06
2.71, -7.51466e+06, 147500, -2.78635e+06
2.72, -7.98808e+06, 41430.6, -2.99071e+06
2.73, -8.45151e+06, -70478.6, -3.18508e+06
2.74, -8.90494e+06, -173648, -3.36945e+06
2.75, -9.34837e+06, -266817, -3.54381e+06
2.76, -9.78179e+06, -349986, -3.70818e+06
2.77, -1.02052e+07, -423155, -3.86255e+06
2.78, -1.06186e+07, -486325, -4.00691e+06
2.79, -1.10221e+07, -539494, -4.14128e+06
2.8, -1.14155e+07, -582663, -4.26565e+06
2.81, -1.17989e+07, -615832, -4.38001e+06
2.82, -1.21724e+07, -639001, -4.48438e+06
2.83, -1.25358e+07, -652171, -4.57875e+06
2.84, -1.28892e+07, -655340, -4.66311e+06
2.85, -1.32326e+07, -648509, -4.73748e+06
2.86, -1.35661e+07, -631678, -4.80185e+06
2.87, -1.38895e+07, -604847, -4.85621e+06
2.88, -1.42029e+07, -568017, -4.90058e+06
2.89, -1.45063e+07, -521186, -4.93495e+06
2.9, -1.47998e+07, -464355, -4.95931e+06
2.91, -1.50832e+07, -397524, -4.97368e+06
2.92, -1.53566e+07, -320693, -4.97805e+06
2.93, -1.562e+07, -233863, -4.97241e+06
2.94, -1.58735e+07, -137032, -4.95678e+06
2.95, -1.61169e+07, -30201, -4.93115e+06
2.96, -1.63503e+07, 81079.9, -4.89551e+06
2.97, -1.65738e+07, 183011, -4.84988e+06
2.98, -1.67872e+07, 274941, -4.79425e+06
2.99, -1.69906e+07, 356872, -4.72861e+06
3, -1.7184e+07, 428803, -4.65298e+06
3.01, -1.73675e+07, 490734, -4.56735e+06
3.02, -1.75409e+07, 542665, -4.47171e+06
3.03, -1.77043e+07, 584595, -4.36608e+06
3.04, -1.78577e+07, 616526, -4.25045e+06
3.05, -1.80012e+07, 638457, -4.12481e+06
3.06, -1.81346e+07, 650388, -3.98918e+06
3.07, -1.8258e+07, 652319, -3.84355e+06
3.08, -1.83714e+07, 644249, -3.68791e+06
3.09, -1.84749e+07, 626180, -3.52228e+06
3.1, -1.85683e+07, 598111, -3.34665e+06
3.11, -1.86517e+07, 560042, -3.16101e+06
3.12, -1.87252e+07, 511973, -2.96538e+06
3.13, -1.87886e+07, 453903, -2.75975e+06
3.14, -1.8842e+07, 385834, -2.54411e+06
3.15, -1.88854e+07, 307765, -2.31848e+06
3.16, -1.89189e+07, 219696, -2.08285e+06
3.17, -1.89423e+07, 121627, -1.83721e+06
3.18, -1.89557e+07, 13557.5, -1.58158e+06
3.19, -1.89591e+07, -96501.7, -1.31595e+06
3.2, -1.89526e+07, -196671, -1.04031e+06
3.21, -1.8936e+07, -286840, -754680
3.22, -1.89094e+07, -367009, -459047
3.23, -1.88728e+07, -437178, -153413
3.24, -1.88263e+07, -497348, 159568
3.25, -1.87697e+07, -547517, 464901
3.26, -1.87031e+07, -587686, 760235
3.27, -1.86266e+07, -617855, 1.04557e+06
3.28, -1.854e+07, -638024, 1.3209e+06
3.29, -1.84434e+07, -648194, 1.58623e+06
3.3, -1.83368e+07, -648363, 1.84157e+06
3.31, -1.82203e+07, -638532, 2.0869e+06
3.32, -1.80937e+07, -618701, 2.32223e+06
3.33, -1.79571e+07, -588870, 2.54757e+06
3.34, -1.78105e+07, -549040, 2.7629e+06
3.35, -1.7654e+07, -499209, 2.96823e+06
3.36, -1.74874e+07, -439378, 3.16357e+06
3.37, -1.73108e+07, -369547, 3.3489e+06
3.38, -1.71243e+07, -289716, 3.52423e+06
3.39, -1.69277e+07, -199886, 3.68957e+06
3.4, -1.67211e+07, -100055, 3.8449e+06
3.41, -1.65045e+07, 9685.95, 3.99023e+06
3.42, -1.6278e+07, 117617, 4.12557e+06
3.43, -1.60414e+07, 215548, 4.2509e+06
3.44, -1.57948e+07, 303478, 4.36623e+06
3.45, -1.55382e+07, 381409, 4.47157e+06
3.46, -1.52717e+07, 449340, 4.5669e+06
3.47, -1.49951e+07, 507271, 4.65223e+06
3.48, -1.47085e+07, 555202, 4.72757e+06
3.49, -1.44119e+07, 593132, 4.7929e+06
3.5, -1.41054e+07, 621063, 4.84823e+06
3.51, -1.37888e+07, 638994, 4.89357e+06
3.52, -1.34622e+07, 646925, 4.9289e+06
3.53, -1.31257e+07, 644856, 4.95423e+06
3.54, -1.27791e+07, 632786, 4.96957e+06
3.55, -1.24225e+07, 610717, 4.9749e+06
3.56, -1.20559e+07, 578648, 4.97023e+06
3.57, -1.16794e+07, 536579, 4.95557e+06
3.58, -1.12928e+07, 484510, 4.9309e+06
3.59, -1.08962e+07, 422440, 4.89623e+06
3.6, -1.04896e+07, 350371, 4.85157e+06
3.61, -1.00731e+07, 268302, 4.7969e+06
3.62, -9.64649e+06, 176233, 4.73223e+06
3.63, -9.20992e+06, 74163.6, 4.65757e+06
3.64, -8.76335e+06, -36783.6, 4.5729e+06
3.65, -8.30677e+06, -142153, 4.47823e+06
3.66, -7.8402e+06, -237522, 4.37357e+06
3.67, -7.36363e+06, -322891, 4.2589e+06
3.68, -6.87705e+06, -398260, 4.13423e+06
3.69, -6.38048e+06, -463630, 3.99957e+06
3.7, -5.87391e+06, -518999, 3.8549e+06
3.71, -5.35733e+06, -564368, 3.70023e+06
3.72, -4.83076e+06, -599737, 3.53557e+06
3.73, -4.29419e+06, -625106, 3.3609e+06
3.74, -3.74761e+06, -640476, 3.17623e+06
3.75, -3.19104e+06, -645845, 2.98157e+06
3.76, -2.62447e+06, -641214, 2.7769e+06
3.77, -2.04789e+06, -626583, 2.56223e+06
3.78, -1.46132e+06, -601952, 2.33757e+06
3.79, -864748, -567322, 2.1029e+06
3.8, -258175, -522691, 1.85823e+06
3.81, 354976, -468060, 1.60357e+06
3.82, 959849, -403429, 1.3389e+06
3.83, 1.55472e+06, -328798, 1.06423e+06
3.84, 2.1396e+06, -244168, 779567
3.85, 2.71447e+06, -149537, 484900
3.86, 3.27934e+06, -44905.9, 180233
3.87, 3.83422e+06, 66064.9, -132541
3.88, 4.37909e+06, 168596, -438508
3.89, 4.91396e+06, 261126, -734475
3.9, 5.43884e+06, 343657, -1.02044e+06
3.91, 5.95371e+06, 416188, -1.29641e+06
3.92, 6.45858e+06, 478719, -1.56237e+06
3.93, 6.95345e+06, 531250, -1.81834e+06
3.94, 7.43833e+06, 573780, -2.06431e+06
3.95, 7.9132e+06, 606311, -2.30027e+06
3.96, 8.37807e+06, 628842, -2.52624e+06
3.97, 8.83295e+06, 641373, -2.74221e+06
3.98, 9.27782e+06, 643904, -2.94817e+06
3.99, 9.71269e+06, 636434, -3.14414e+06
4, 1.01376e+07, 618965, -3.33011e+06
4.01, 1.05524e+07, 591496, -3.50607e+06
4.02, 1.09573e+07, 554027, -3.67204e+06
4.03, 1.13522e+07, 506558, -3.82801e+06
4.04, 1.17371e+07, 449088, -3.97397e+06
4.05, 1.21119e+07, 381619, -4.10994e+06
4.06, 1.24768e+07, 304150, -4.23591e+06
4.07, 1.28317e+07, 216681, -4.35187e+06
4.08, 1.31766e+07, 119212, -4.45784e+06
4.09, 1.35114e+07, 11742.5, -4.55381e+06
4.1, 1.38363e+07, -97536.7, -4.63977e+06
4.11, 1.41512e+07, -196906, -4.71574e+06
4.12, 1.4456e+07, -286275, -4.78171e+06
4.13, 1.47509e+07, -365644, -4.83767e+06
4.14, 1.50358e+07, -435013, -4.88364e+06
4.15, 1.53107e+07, -494383, -4.91961e+06
4.16, 1.55755e+07, -543752, -4.94558e+06
4.17, 1.58304e+07, -583121, -4.96154e+06
4.18, 1.60753e+07, -612490, -4.96751e+06
4.19, 1.63102e+07, -631859, -4.96348e+06
4.2, 1.6535e+07, -641229, -4.94944e+06
4.21, 1.67499e+07, -640598, -4.92541e+06
4.22, 1.69548e+07, -629967, -4.89138e+06
4.23, 1.71497e+07, -609336, -4.84734e+06
4.24, 1.73345e+07, -578705, -4.79331e+06
4.25, 1.75094e+07, -538075, -4.72928e+06
4.26, 1.76743e+07, -487444, -4.65524e+06
4.27, 1.78291e+07, -426813, -4.57121e+06
4.28, 1.7974e+07, -356182, -4.47718e+06
4.29, 1.81089e+07, -275551, -4.37314e+06
4.3, 1.82338e+07, -184921, -4.25911e+06
4.31, 1.83486e+07, -84289.9, -4.13508e+06
4.32, 1.84535e+07, 25741, -4.00104e+06
4.33, 1.85484e+07, 131472, -3.85701e+06
4.34, 1.86333e+07, 227203, -3.70298e+06
4.35, 1.87081e+07, 312933, -3.53894e+06
4.36, 1.8773e+07, 388664, -3.36491e+06
4.37, 1.88279e+07, 454395, -3.18088e+06
4.38, 1.88728e+07, 510126, -2.98684e+06
4.39, 1.89076e+07, 555857, -2.78281e+06
4.4, 1.89325e+07, 591587, -2.56878e+06
4.41, 1.89474e+07, 617318, -2.34474e+06
4.42, 1.89522e+07, 633049, -2.11071e+06
4.43, 1.89471e+07, 638780, -1.86668e+06
4.44, 1.8932e+07, 634511, -1.61264e+06
4.45, 1.89069e+07, 620241, -1.34861e+06
4.46, 1.88717e+07, 595972, -1.07458e+06
4.47, 1.88266e+07, 561703, -790542
4.48, 1.87715e+07, 517434, -496509
4.49, 1.87064e+07, 463165, -192476
4.5, 1.86312e+07, 398895, 119998
4.51, 1.85461e+07, 324626, 426131
4.52, 1.8451e+07, 240357, 722264
4.53, 1.83458e+07, 146088, 1.0084e+06
4.54, 1.82307e+07, 41818.6, 1.28453e+06
4.55, 1.81056e+07, -68418.6, 1.55066e+06
4.56, 1.79705e+07, -169988, 1.8068e+06
4.57, 1.78253e+07, -261557, 2.05293e+06
4.58, 1.76702e+07, -343126, 2.28906e+06
4.59, 1.75051e+07, -414695, 2.5152e+06
4.6, 1.733e+07, -476265, 2.73133e+06
4.61, 1.71448e+07, -527834, 2.93746e+06
4.62, 1.69497e+07, -569403, 3.1336e+06
4.63, 1.67446e+07, -600972, 3.31973e+06
4.64, 1.65295e+07, -622541, 3.49586e+06
4.65, 1.63043e+07, -634111, 3.662e+06
4.66, 1.60692e+07, -635680, 3.81813e+06
4.67, 1.58241e+07, -627249, 3.96426e+06
4.68, 1.55689e+07, -608818, 4.1004e+06
4.69, 1.53038e+07, -580387, 4.22653e+06
4.7, 1.50287e+07, -541957, 4.34266e+06
4.71, 1.47436e+07, -493526, 4.4488e+06
4.72, 1.44484e+07, -435095, 4.54493e+06
4.73, 1.41433e+07, -366664, 4.63106e+06
4.74, 1.38282e+07, -288233, 4.7072e+06
4.75, 1.35031e+07, -199803, 4.77333e+06
4.76, 1.31679e+07, -101372, 4.82946e+06
4.77, 1.28228e+07, 7003.05, 4.8756e+06
4.78, 1.24677e+07, 113934, 4.91173e+06
4.79, 1.21026e+07, 210865, 4.93786e+06
4.8, 1.17274e+07, 297795, 4.954e+06
4.81, 1.13423e+07, 374726, 4.96013e+06
4.82, 1.09472e+07, 441657, 4.95626e+06
4.83, 1.0542e+07, 498588, 4.9424e+06
4.84, 1.01269e+07, 545519, 4.91853e+06
4.85, 9.70179e+06, 582449, 4.88466e+06
4.86, 9.26667e+06, 609380, 4.8408e+06
4.87, 8.82154e+06, 626311, 4.78693e+06
4.88, 8.36641e+06, 633242, 4.72306e+06
4.89, 7.90129e+06, 630173, 4.6492e+06
4.9, 7.42616e+06, 617103, 4.56533e+06
4.91, 6.94103e+06, 594034, 4.47146e+06
4.92, 6.44591e+06, 560965, 4.3676e+06
4.93, 5.94078e+06, 517896, 4.25373e+06
4.94, 5.42565e+06, 464827, 4.12986e+06
4.95, 4.90053e+06, 401757, 3.996e+06
4.96, 4.3654e+06, 328688, 3.85213e+06
4.97, 3.82027e+06, 245619, 3.69826e+06
4.98, 3.26514e+06, 152550, 3.5344e+06
4.99, 2.70002e+06, 49480.7, 3.36053e+06
5, 2.12489e+06, -60396.5, 3.17666e+06
5.01, 1.53976e+06, -162166, 2.9828e+06
5.02, 944638, -253935, 2.77893e+06
5.03, 339511, -335704, 2.56506e+06
5.04, -273546, -407473, 2.3412e+06
5.05, -879572, -469242, 2.10733e+06
5.06, -1.4756e+06, -521012, 1.86346e+06
5.07, -2.06163e+06, -562781, 1.6096e+06
5.08, -2.63765e+06, -594550, 1.34573e+06
5.09, -3.20368e+06, -616319, 1.07186e+06
5.1, -3.75971e+06, -628088, 787997
5.11, -4.30573e+06, -629858, 494130
5.12, -4.84176e+06, -621627, 190263
5.13, -5.36779e+06, -603396, -121963
5.14, -5.88381e+06, -575165, -427730
5.15, -6.38984e+06, -536934, -723497
5.16, -6.88587e+06, -488704, -1.00926e+06
5.17, -7.37189e+06, -430473, -1.28503e+06
5.18, -7.84792e+06, -362242, -1.5508e+06
5.19, -8.31395e+06, -284011, -1.80656e+06
5.2, -8.76997e+06, -195780, -2.05233e+06
5.21, -9.216e+06, -97549.7, -2.2881e+06
